ID,Latitude,Longitude,Demand
0,31.5204,74.3587,0
1,31.532,74.3585,10
2,31.54,74.37,15
3,31.55,74.34,20
4,31.56,74.36,18
5,31.57,74.38,25
6,31.58,74.39,12
7,31.59,74.35,30
8,31.6,74.33,22
9,31.61,74.36,17
10,31.62,74.37,14
11,31.63,74.38,19
12,31.64,74.39,24
13,31.65,74.4,16
14,31.66,74.41,28
15,31.67,74.42,21
16,31.68,74.43,13
17,31.69,74.44,26
18,31.7,74.45,11
19,31.71,74.46,23
20,31.72,74.47,27
